Time,Voltage,Active Power,Reactive Power
0.001,0.98016,10.00000,-10.00000
0.002,0.98031,9.99999,-9.99999
0.003,0.98047,9.99999,-9.99999
0.004,0.98063,9.99998,-9.99998
0.005,0.98079,9.99997,-9.99997
0.006,0.98094,9.99995,-9.99995
0.007,0.98110,9.99994,-9.99994
0.008,0.98126,9.99992,-9.99992
0.009,0.98141,9.99990,-9.99990
0.010,0.98157,9.99987,-9.99987
0.011,0.98173,9.99985,-9.99985
0.012,0.98188,9.99982,-9.99982
0.013,0.98204,9.99979,-9.99979
0.014,0.98220,9.99975,-9.99975
0.015,0.98236,9.99972,-9.99972
0.016,0.98251,9.99968,-9.99968
0.017,0.98267,9.99964,-9.99964
0.018,0.98283,9.99960,-9.99960
0.019,0.98298,9.99955,-9.99955
0.020,0.98314,9.99950,-9.99950
0.021,0.98330,9.99945,-9.99945
0.022,0.98345,9.99940,-9.99940
0.023,0.98361,9.99934,-9.99934
0.024,0.98377,9.99929,-9.99929
0.025,0.98392,9.99923,-9.99923
0.026,0.98408,9.99917,-9.99917
0.027,0.98424,9.99910,-9.99910
0.028,0.98439,9.99903,-9.99903
0.029,0.98455,9.99897,-9.99897
0.030,0.98471,9.99890,-9.99890
0.031,0.98486,9.99882,-9.99882
0.032,0.98502,9.99875,-9.99875
0.033,0.98517,9.99867,-9.99867
0.034,0.98533,9.99859,-9.99859
0.035,0.98549,9.99851,-9.99851
0.036,0.98564,9.99843,-9.99843
0.037,0.98580,9.99834,-9.99834
0.038,0.98595,9.99825,-9.99825
0.039,0.98611,9.99816,-9.99816
0.040,0.98627,9.99807,-9.99807
0.041,0.98642,9.99798,-9.99798
0.042,0.98658,9.99788,-9.99788
0.043,0.98673,9.99779,-9.99779
0.044,0.98689,9.99769,-9.99769
0.045,0.98705,9.99759,-9.99759
0.046,0.98720,9.99749,-9.99749
0.047,0.98736,9.99738,-9.99738
0.048,0.98751,9.99728,-9.99728
0.049,0.98767,9.99717,-9.99717
0.050,0.98782,9.99706,-9.99706
0.051,0.98798,9.99695,-9.99695
0.052,0.98813,9.99684,-9.99684
0.053,0.98829,9.99673,-9.99673
0.054,0.98844,9.99661,-9.99661
0.055,0.98860,9.99649,-9.99649
0.056,0.98875,9.99638,-9.99638
0.057,0.98891,9.99626,-9.99626
0.058,0.98906,9.99614,-9.99614
0.059,0.98921,9.99602,-9.99602
0.060,0.98937,9.99589,-9.99589
0.061,0.98952,9.99577,-9.99577
0.062,0.98968,9.99564,-9.99564
0.063,0.98983,9.99552,-9.99552
0.064,0.98999,9.99539,-9.99539
0.065,0.99014,9.99526,-9.99526
0.066,0.99029,9.99513,-9.99513
0.067,0.99045,9.99500,-9.99500
0.068,0.99060,9.99487,-9.99487
0.069,0.99075,9.99474,-9.99474
0.070,0.99091,9.99461,-9.99461
0.071,0.99106,9.99447,-9.99447
0.072,0.99121,9.99434,-9.99434
0.073,0.99137,9.99420,-9.99420
0.074,0.99152,9.99407,-9.99407
0.075,0.99167,9.99393,-9.99393
0.076,0.99182,9.99380,-9.99380
0.077,0.99198,9.99366,-9.99366
0.078,0.99213,9.99352,-9.99352
0.079,0.99228,9.99338,-9.99338
0.080,0.99243,9.99325,-9.99325
0.081,0.99259,9.99311,-9.99311
0.082,0.99274,9.99297,-9.99297
0.083,0.99289,9.99283,-9.99283
0.084,0.99304,9.99269,-9.99269
0.085,0.99319,9.99255,-9.99255
0.086,0.99335,9.99241,-9.99241
0.087,0.99350,9.99227,-9.99227
0.088,0.99365,9.99213,-9.99213
0.089,0.99380,9.99200,-9.99200
0.090,0.99395,9.99186,-9.99186
0.091,0.99410,9.99172,-9.99172
0.092,0.99425,9.99158,-9.99158
0.093,0.99440,9.99144,-9.99144
0.094,0.99455,9.99130,-9.99130
0.095,0.99470,9.99117,-9.99117
0.096,0.99485,9.99103,-9.99103
0.097,0.99500,9.99089,-9.99089
0.098,0.99515,9.99076,-9.99076
0.099,0.99530,9.99062,-9.99062
0.100,0.99545,9.99049,-9.99049
0.101,0.99560,9.99036,-9.99036
0.102,0.99575,9.99022,-9.99022
0.103,0.99590,9.99009,-9.99009
0.104,0.99605,9.98996,-9.98996
0.105,0.99620,9.98983,-9.98983
0.106,0.99634,9.98970,-9.98970
0.107,0.99649,9.98957,-9.98957
0.108,0.99664,9.98945,-9.98945
0.109,0.99679,9.98932,-9.98932
0.110,0.99694,9.98919,-9.98919
0.111,0.99708,9.98907,-9.98907
0.112,0.99723,9.98895,-9.98895
0.113,0.99738,9.98883,-9.98883
0.114,0.99753,9.98871,-9.98871
0.115,0.99767,9.98859,-9.98859
0.116,0.99782,9.98847,-9.98847
0.117,0.99797,9.98836,-9.98836
0.118,0.99811,9.98825,-9.98825
0.119,0.99826,9.98813,-9.98813
0.120,0.99841,9.98802,-9.98802
0.121,0.99855,9.98792,-9.98792
0.122,0.99870,9.98781,-9.98781
0.123,0.99884,9.98770,-9.98770
0.124,0.99899,9.98760,-9.98760
0.125,0.99913,9.98750,-9.98750
0.126,0.99928,9.98740,-9.98740
0.127,0.99942,9.98730,-9.98730
0.128,0.99957,9.98721,-9.98721
0.129,0.99971,9.98712,-9.98712
0.130,0.99986,9.98703,-9.98703
0.131,1.00000,9.98694,-9.98694
0.132,1.00015,9.98685,-9.98685
0.133,1.00029,9.98677,-9.98677
0.134,1.00043,9.98669,-9.98669
0.135,1.00058,9.98661,-9.98661
0.136,1.00072,9.98653,-9.98653
0.137,1.00086,9.98646,-9.98646
0.138,1.00100,9.98638,-9.98638
0.139,1.00115,9.98631,-9.98631
0.140,1.00129,9.98625,-9.98625
0.141,1.00143,9.98618,-9.98618
0.142,1.00157,9.98612,-9.98612
0.143,1.00171,9.98606,-9.98606
0.144,1.00186,9.98601,-9.98601
0.145,1.00200,9.98596,-9.98596
0.146,1.00214,9.98591,-9.98591
0.147,1.00228,9.98586,-9.98586
0.148,1.00242,9.98581,-9.98581
0.149,1.00256,9.98577,-9.98577
0.150,1.00270,9.98573,-9.98573
0.151,1.00284,9.98570,-9.98570
0.152,1.00298,9.98567,-9.98567
0.153,1.00312,9.98564,-9.98564
0.154,1.00326,9.98561,-9.98561
0.155,1.00340,9.98559,-9.98559
0.156,1.00354,9.98557,-9.98557
0.157,1.00367,9.98555,-9.98555
0.158,1.00381,9.98554,-9.98554
0.159,1.00395,9.98553,-9.98553
0.160,1.00409,9.98552,-9.98552
0.161,1.00423,9.98552,-9.98552
0.162,1.00436,9.98552,-9.98552
0.163,1.00450,9.98552,-9.98552
0.164,1.00464,9.98553,-9.98553
0.165,1.00477,9.98554,-9.98554
0.166,1.00491,9.98555,-9.98555
0.167,1.00505,9.98557,-9.98557
0.168,1.00518,9.98559,-9.98559
0.169,1.00532,9.98562,-9.98562
0.170,1.00545,9.98565,-9.98565
0.171,1.00559,9.98568,-9.98568
0.172,1.00572,9.98571,-9.98571
0.173,1.00586,9.98575,-9.98575
0.174,1.00599,9.98580,-9.98580
0.175,1.00612,9.98584,-9.98584
0.176,1.00626,9.98589,-9.98589
0.177,1.00639,9.98595,-9.98595
0.178,1.00653,9.98600,-9.98600
0.179,1.00666,9.98607,-9.98607
0.180,1.00679,9.98613,-9.98613
0.181,1.00692,9.98620,-9.98620
0.182,1.00706,9.98627,-9.98627
0.183,1.00719,9.98635,-9.98635
0.184,1.00732,9.98643,-9.98643
0.185,1.00745,9.98651,-9.98651
0.186,1.00758,9.98660,-9.98660
0.187,1.00771,9.98669,-9.98669
0.188,1.00784,9.98679,-9.98679
0.189,1.00797,9.98689,-9.98689
0.190,1.00810,9.98699,-9.98699
0.191,1.00823,9.98710,-9.98710
0.192,1.00836,9.98721,-9.98721
0.193,1.00849,9.98733,-9.98733
0.194,1.00862,9.98745,-9.98745
0.195,1.00875,9.98757,-9.98757
0.196,1.00888,9.98770,-9.98770
0.197,1.00901,9.98783,-9.98783
0.198,1.00913,9.98796,-9.98796
0.199,1.00926,9.98810,-9.98810
0.200,1.00939,9.98824,-9.98824
0.201,1.00952,9.98839,-9.98839
0.202,1.00964,9.98854,-9.98854
0.203,1.00977,9.98870,-9.98870
0.204,1.00990,9.98885,-9.98885
0.205,1.01002,9.98902,-9.98902
0.206,1.01015,9.98918,-9.98918
0.207,1.01027,9.98935,-9.98935
0.208,1.01040,9.98952,-9.98952
0.209,1.01052,9.98970,-9.98970
0.210,1.01065,9.98988,-9.98988
0.211,1.01077,9.99007,-9.99007
0.212,1.01089,9.99026,-9.99026
0.213,1.01102,9.99045,-9.99045
0.214,1.01114,9.99065,-9.99065
0.215,1.01126,9.99085,-9.99085
0.216,1.01138,9.99105,-9.99105
0.217,1.01151,9.99126,-9.99126
0.218,1.01163,9.99147,-9.99147
0.219,1.01175,9.99168,-9.99168
0.220,1.01187,9.99190,-9.99190
0.221,1.01199,9.99212,-9.99212
0.222,1.01211,9.99235,-9.99235
0.223,1.01223,9.99258,-9.99258
0.224,1.01235,9.99281,-9.99281
0.225,1.01247,9.99305,-9.99305
0.226,1.01259,9.99329,-9.99329
0.227,1.01271,9.99353,-9.99353
0.228,1.01283,9.99378,-9.99378
0.229,1.01295,9.99403,-9.99403
0.230,1.01307,9.99428,-9.99428
0.231,1.01318,9.99454,-9.99454
0.232,1.01330,9.99480,-9.99480
0.233,1.01342,9.99506,-9.99506
0.234,1.01353,9.99533,-9.99533
0.235,1.01365,9.99560,-9.99560
0.236,1.01377,9.99587,-9.99587
0.237,1.01388,9.99615,-9.99615
0.238,1.01400,9.99642,-9.99642
0.239,1.01411,9.99671,-9.99671
0.240,1.01423,9.99699,-9.99699
0.241,1.01434,9.99728,-9.99728
0.242,1.01446,9.99757,-9.99757
0.243,1.01457,9.99787,-9.99787
0.244,1.01468,9.99816,-9.99816
0.245,1.01480,9.99846,-9.99846
0.246,1.01491,9.99876,-9.99876
0.247,1.01502,9.99907,-9.99907
0.248,1.01513,9.99938,-9.99938
0.249,1.01524,9.99969,-9.99969
0.250,1.01536,10.00000,-10.00000
0.251,1.01547,10.00032,-10.00032
0.252,1.01558,10.00063,-10.00063
0.253,1.01569,10.00095,-10.00095
0.254,1.01580,10.00128,-10.00128
0.255,1.01591,10.00160,-10.00160
0.256,1.01602,10.00193,-10.00193
0.257,1.01612,10.00226,-10.00226
0.258,1.01623,10.00259,-10.00259
0.259,1.01634,10.00292,-10.00292
0.260,1.01645,10.00326,-10.00326
0.261,1.01656,10.00360,-10.00360
0.262,1.01666,10.00394,-10.00394
0.263,1.01677,10.00428,-10.00428
0.264,1.01688,10.00462,-10.00462
0.265,1.01698,10.00497,-10.00497
0.266,1.01709,10.00531,-10.00531
0.267,1.01719,10.00566,-10.00566
0.268,1.01730,10.00601,-10.00601
0.269,1.01740,10.00636,-10.00636
0.270,1.01751,10.00671,-10.00671
0.271,1.01761,10.00707,-10.00707
0.272,1.01771,10.00742,-10.00742
0.273,1.01782,10.00778,-10.00778
0.274,1.01792,10.00814,-10.00814
0.275,1.01802,10.00850,-10.00850
0.276,1.01812,10.00886,-10.00886
0.277,1.01822,10.00922,-10.00922
0.278,1.01832,10.00958,-10.00958
0.279,1.01843,10.00994,-10.00994
0.280,1.01853,10.01031,-10.01031
0.281,1.01863,10.01067,-10.01067
0.282,1.01873,10.01104,-10.01104
0.283,1.01882,10.01140,-10.01140
0.284,1.01892,10.01177,-10.01177
0.285,1.01902,10.01213,-10.01213
0.286,1.01912,10.01250,-10.01250
0.287,1.01922,10.01287,-10.01287
0.288,1.01931,10.01324,-10.01324
0.289,1.01941,10.01360,-10.01360
0.290,1.01951,10.01397,-10.01397
0.291,1.01960,10.01434,-10.01434
0.292,1.01970,10.01471,-10.01471
0.293,1.01979,10.01507,-10.01507
0.294,1.01989,10.01544,-10.01544
0.295,1.01998,10.01581,-10.01581
0.296,1.02008,10.01617,-10.01617
0.297,1.02017,10.01654,-10.01654
0.298,1.02027,10.01690,-10.01690
0.299,1.02036,10.01727,-10.01727
0.300,1.02045,10.01763,-10.01763
0.301,1.02054,10.01800,-10.01800
0.302,1.02063,10.01836,-10.01836
0.303,1.02073,10.01872,-10.01872
0.304,1.02082,10.01908,-10.01908
0.305,1.02091,10.01944,-10.01944
0.306,1.02100,10.01980,-10.01980
0.307,1.02109,10.02016,-10.02016
0.308,1.02118,10.02051,-10.02051
0.309,1.02127,10.02087,-10.02087
0.310,1.02135,10.02122,-10.02122
0.311,1.02144,10.02157,-10.02157
0.312,1.02153,10.02192,-10.02192
0.313,1.02162,10.02227,-10.02227
0.314,1.02170,10.02262,-10.02262
0.315,1.02179,10.02296,-10.02296
0.316,1.02188,10.02331,-10.02331
0.317,1.02196,10.02365,-10.02365
0.318,1.02205,10.02399,-10.02399
0.319,1.02213,10.02432,-10.02432
0.320,1.02222,10.02466,-10.02466
0.321,1.02230,10.02499,-10.02499
0.322,1.02238,10.02532,-10.02532
0.323,1.02247,10.02565,-10.02565
0.324,1.02255,10.02597,-10.02597
0.325,1.02263,10.02629,-10.02629
0.326,1.02271,10.02661,-10.02661
0.327,1.02280,10.02693,-10.02693
0.328,1.02288,10.02724,-10.02724
0.329,1.02296,10.02755,-10.02755
0.330,1.02304,10.02786,-10.02786
0.331,1.02312,10.02817,-10.02817
0.332,1.02320,10.02847,-10.02847
0.333,1.02328,10.02877,-10.02877
0.334,1.02335,10.02906,-10.02906
0.335,1.02343,10.02936,-10.02936
0.336,1.02351,10.02964,-10.02964
0.337,1.02359,10.02993,-10.02993
0.338,1.02366,10.03021,-10.03021
0.339,1.02374,10.03049,-10.03049
0.340,1.02382,10.03076,-10.03076
0.341,1.02389,10.03103,-10.03103
0.342,1.02397,10.03130,-10.03130
0.343,1.02404,10.03156,-10.03156
0.344,1.02411,10.03182,-10.03182
0.345,1.02419,10.03208,-10.03208
0.346,1.02426,10.03233,-10.03233
0.347,1.02433,10.03257,-10.03257
0.348,1.02441,10.03282,-10.03282
0.349,1.02448,10.03305,-10.03305
0.350,1.02455,10.03329,-10.03329
0.351,1.02462,10.03352,-10.03352
0.352,1.02469,10.03374,-10.03374
0.353,1.02476,10.03396,-10.03396
0.354,1.02483,10.03417,-10.03417
0.355,1.02490,10.03438,-10.03438
0.356,1.02497,10.03459,-10.03459
0.357,1.02504,10.03479,-10.03479
0.358,1.02511,10.03499,-10.03499
0.359,1.02517,10.03518,-10.03518
0.360,1.02524,10.03536,-10.03536
0.361,1.02531,10.03554,-10.03554
0.362,1.02537,10.03572,-10.03572
0.363,1.02544,10.03589,-10.03589
0.364,1.02551,10.03605,-10.03605
0.365,1.02557,10.03621,-10.03621
0.366,1.02563,10.03637,-10.03637
0.367,1.02570,10.03651,-10.03651
0.368,1.02576,10.03666,-10.03666
0.369,1.02583,10.03680,-10.03680
0.370,1.02589,10.03693,-10.03693
0.371,1.02595,10.03705,-10.03705
0.372,1.02601,10.03717,-10.03717
0.373,1.02607,10.03729,-10.03729
0.374,1.02613,10.03740,-10.03740
0.375,1.02619,10.03750,-10.03750
0.376,1.02625,10.03760,-10.03760
0.377,1.02631,10.03769,-10.03769
0.378,1.02637,10.03777,-10.03777
0.379,1.02643,10.03785,-10.03785
0.380,1.02649,10.03793,-10.03793
0.381,1.02655,10.03799,-10.03799
0.382,1.02660,10.03805,-10.03805
0.383,1.02666,10.03811,-10.03811
0.384,1.02672,10.03815,-10.03815
0.385,1.02677,10.03820,-10.03820
0.386,1.02683,10.03823,-10.03823
0.387,1.02688,10.03826,-10.03826
0.388,1.02694,10.03828,-10.03828
0.389,1.02699,10.03830,-10.03830
0.390,1.02704,10.03831,-10.03831
0.391,1.02710,10.03831,-10.03831
0.392,1.02715,10.03831,-10.03831
0.393,1.02720,10.03830,-10.03830
0.394,1.02725,10.03828,-10.03828
0.395,1.02730,10.03826,-10.03826
0.396,1.02735,10.03823,-10.03823
0.397,1.02741,10.03819,-10.03819
0.398,1.02745,10.03815,-10.03815
0.399,1.02750,10.03810,-10.03810
0.400,1.02755,10.03804,-10.03804
0.401,1.02760,10.03798,-10.03798
0.402,1.02765,10.03791,-10.03791
0.403,1.02770,10.03783,-10.03783
0.404,1.02774,10.03775,-10.03775
0.405,1.02779,10.03766,-10.03766
0.406,1.02784,10.03756,-10.03756
0.407,1.02788,10.03745,-10.03745
0.408,1.02793,10.03734,-10.03734
0.409,1.02797,10.03722,-10.03722
0.410,1.02801,10.03710,-10.03710
0.411,1.02806,10.03697,-10.03697
0.412,1.02810,10.03683,-10.03683
0.413,1.02814,10.03668,-10.03668
0.414,1.02819,10.03653,-10.03653
0.415,1.02823,10.03637,-10.03637
0.416,1.02827,10.03620,-10.03620
0.417,1.02831,10.03603,-10.03603
0.418,1.02835,10.03584,-10.03584
0.419,1.02839,10.03566,-10.03566
0.420,1.02843,10.03546,-10.03546
0.421,1.02847,10.03526,-10.03526
0.422,1.02851,10.03505,-10.03505
0.423,1.02854,10.03484,-10.03484
0.424,1.02858,10.03461,-10.03461
0.425,1.02862,10.03438,-10.03438
0.426,1.02865,10.03415,-10.03415
0.427,1.02869,10.03390,-10.03390
0.428,1.02873,10.03365,-10.03365
0.429,1.02876,10.03340,-10.03340
0.430,1.02880,10.03313,-10.03313
0.431,1.02883,10.03286,-10.03286
0.432,1.02886,10.03258,-10.03258
0.433,1.02890,10.03230,-10.03230
0.434,1.02893,10.03201,-10.03201
0.435,1.02896,10.03171,-10.03171
0.436,1.02899,10.03141,-10.03141
0.437,1.02902,10.03109,-10.03109
0.438,1.02905,10.03078,-10.03078
0.439,1.02908,10.03045,-10.03045
0.440,1.02911,10.03012,-10.03012
0.441,1.02914,10.02978,-10.02978
0.442,1.02917,10.02944,-10.02944
0.443,1.02920,10.02909,-10.02909
0.444,1.02923,10.02873,-10.02873
0.445,1.02926,10.02837,-10.02837
0.446,1.02928,10.02800,-10.02800
0.447,1.02931,10.02762,-10.02762
0.448,1.02933,10.02724,-10.02724
0.449,1.02936,10.02685,-10.02685
0.450,1.02938,10.02645,-10.02645
0.451,1.02941,10.02605,-10.02605
0.452,1.02943,10.02564,-10.02564
0.453,1.02946,10.02523,-10.02523
0.454,1.02948,10.02481,-10.02481
0.455,1.02950,10.02438,-10.02438
0.456,1.02952,10.02395,-10.02395
0.457,1.02954,10.02351,-10.02351
0.458,1.02957,10.02307,-10.02307
0.459,1.02959,10.02262,-10.02262
0.460,1.02961,10.02216,-10.02216
0.461,1.02963,10.02170,-10.02170
0.462,1.02964,10.02123,-10.02123
0.463,1.02966,10.02076,-10.02076
0.464,1.02968,10.02028,-10.02028
0.465,1.02970,10.01980,-10.01980
0.466,1.02972,10.01931,-10.01931
0.467,1.02973,10.01882,-10.01882
0.468,1.02975,10.01832,-10.01832
0.469,1.02976,10.01781,-10.01781
0.470,1.02978,10.01730,-10.01730
0.471,1.02979,10.01679,-10.01679
0.472,1.02981,10.01627,-10.01627
0.473,1.02982,10.01574,-10.01574
0.474,1.02983,10.01521,-10.01521
0.475,1.02985,10.01468,-10.01468
0.476,1.02986,10.01414,-10.01414
0.477,1.02987,10.01360,-10.01360
0.478,1.02988,10.01305,-10.01305
0.479,1.02989,10.01249,-10.01249
0.480,1.02990,10.01194,-10.01194
0.481,1.02991,10.01138,-10.01138
0.482,1.02992,10.01081,-10.01081
0.483,1.02993,10.01024,-10.01024
0.484,1.02994,10.00967,-10.00967
0.485,1.02994,10.00909,-10.00909
0.486,1.02995,10.00851,-10.00851
0.487,1.02996,10.00792,-10.00792
0.488,1.02996,10.00733,-10.00733
0.489,1.02997,10.00674,-10.00674
0.490,1.02998,10.00614,-10.00614
0.491,1.02998,10.00554,-10.00554
0.492,1.02998,10.00494,-10.00494
0.493,1.02999,10.00433,-10.00433
0.494,1.02999,10.00372,-10.00372
0.495,1.02999,10.00311,-10.00311
0.496,1.03000,10.00249,-10.00249
0.497,1.03000,10.00187,-10.00187
0.498,1.03000,10.00125,-10.00125
0.499,1.03000,10.00063,-10.00063
0.500,1.03000,10.00000,-10.00000
0.501,1.03000,9.99937,-9.99937
0.502,1.03000,9.99874,-9.99874
0.503,1.03000,9.99810,-9.99810
0.504,1.03000,9.99747,-9.99747
0.505,1.02999,9.99683,-9.99683
0.506,1.02999,9.99619,-9.99619
0.507,1.02999,9.99555,-9.99555
0.508,1.02998,9.99490,-9.99490
0.509,1.02998,9.99426,-9.99426
0.510,1.02998,9.99361,-9.99361
0.511,1.02997,9.99296,-9.99296
0.512,1.02996,9.99231,-9.99231
0.513,1.02996,9.99166,-9.99166
0.514,1.02995,9.99100,-9.99100
0.515,1.02994,9.99035,-9.99035
0.516,1.02994,9.98969,-9.98969
0.517,1.02993,9.98904,-9.98904
0.518,1.02992,9.98838,-9.98838
0.519,1.02991,9.98773,-9.98773
0.520,1.02990,9.98707,-9.98707
0.521,1.02989,9.98641,-9.98641
0.522,1.02988,9.98575,-9.98575
0.523,1.02987,9.98509,-9.98509
0.524,1.02986,9.98444,-9.98444
0.525,1.02985,9.98378,-9.98378
0.526,1.02983,9.98312,-9.98312
0.527,1.02982,9.98246,-9.98246
0.528,1.02981,9.98180,-9.98180
0.529,1.02979,9.98115,-9.98115
0.530,1.02978,9.98049,-9.98049
0.531,1.02976,9.97983,-9.97983
0.532,1.02975,9.97918,-9.97918
0.533,1.02973,9.97853,-9.97853
0.534,1.02972,9.97787,-9.97787
0.535,1.02970,9.97722,-9.97722
0.536,1.02968,9.97657,-9.97657
0.537,1.02966,9.97592,-9.97592
0.538,1.02964,9.97527,-9.97527
0.539,1.02963,9.97463,-9.97463
0.540,1.02961,9.97399,-9.97399
0.541,1.02959,9.97334,-9.97334
0.542,1.02957,9.97270,-9.97270
0.543,1.02954,9.97207,-9.97207
0.544,1.02952,9.97143,-9.97143
0.545,1.02950,9.97080,-9.97080
0.546,1.02948,9.97017,-9.97017
0.547,1.02946,9.96954,-9.96954
0.548,1.02943,9.96891,-9.96891
0.549,1.02941,9.96829,-9.96829
0.550,1.02938,9.96767,-9.96767
0.551,1.02936,9.96706,-9.96706
0.552,1.02933,9.96644,-9.96644
0.553,1.02931,9.96583,-9.96583
0.554,1.02928,9.96523,-9.96523
0.555,1.02926,9.96462,-9.96462
0.556,1.02923,9.96402,-9.96402
0.557,1.02920,9.96343,-9.96343
0.558,1.02917,9.96284,-9.96284
0.559,1.02914,9.96225,-9.96225
0.560,1.02911,9.96167,-9.96167
0.561,1.02908,9.96109,-9.96109
0.562,1.02905,9.96051,-9.96051
0.563,1.02902,9.95994,-9.95994
0.564,1.02899,9.95937,-9.95937
0.565,1.02896,9.95881,-9.95881
0.566,1.02893,9.95826,-9.95826
0.567,1.02890,9.95771,-9.95771
0.568,1.02886,9.95716,-9.95716
0.569,1.02883,9.95662,-9.95662
0.570,1.02880,9.95608,-9.95608
0.571,1.02876,9.95555,-9.95555
0.572,1.02873,9.95502,-9.95502
0.573,1.02869,9.95450,-9.95450
0.574,1.02865,9.95399,-9.95399
0.575,1.02862,9.95348,-9.95348
0.576,1.02858,9.95298,-9.95298
0.577,1.02854,9.95248,-9.95248
0.578,1.02851,9.95199,-9.95199
0.579,1.02847,9.95151,-9.95151
0.580,1.02843,9.95103,-9.95103
0.581,1.02839,9.95056,-9.95056
0.582,1.02835,9.95009,-9.95009
0.583,1.02831,9.94963,-9.94963
0.584,1.02827,9.94918,-9.94918
0.585,1.02823,9.94874,-9.94874
0.586,1.02819,9.94830,-9.94830
0.587,1.02814,9.94787,-9.94787
0.588,1.02810,9.94744,-9.94744
0.589,1.02806,9.94703,-9.94703
0.590,1.02801,9.94662,-9.94662
0.591,1.02797,9.94621,-9.94621
0.592,1.02793,9.94582,-9.94582
0.593,1.02788,9.94543,-9.94543
0.594,1.02784,9.94505,-9.94505
0.595,1.02779,9.94468,-9.94468
0.596,1.02774,9.94431,-9.94431
0.597,1.02770,9.94396,-9.94396
0.598,1.02765,9.94361,-9.94361
0.599,1.02760,9.94327,-9.94327
0.600,1.02755,9.94294,-9.94294
0.601,1.02750,9.94261,-9.94261
0.602,1.02745,9.94230,-9.94230
0.603,1.02741,9.94199,-9.94199
0.604,1.02735,9.94169,-9.94169
0.605,1.02730,9.94140,-9.94140
0.606,1.02725,9.94112,-9.94112
0.607,1.02720,9.94085,-9.94085
